,Wavelength[nm],Average
0,320.469,3.0
1,323.166,154.0
2,325.861,169.0
3,328.553,157.0
4,331.243,157.0
5,333.93,153.0
6,336.615,144.0
7,339.297,175.0
8,341.976,191.0
9,344.653,237.0
10,347.327,229.0
11,349.998,260.0
12,352.666,255.0
13,355.331,310.0
14,357.994,388.0
15,360.653,456.0
16,363.309,597.0
17,365.962,849.0
18,368.612,1374.0
19,371.259,2565.0
20,373.903,5846.0
21,376.543,13727.0
22,379.18,29425.0
23,381.813,50485.0
24,384.443,54627.0
25,387.07,54527.0
26,389.693,54773.0
27,392.313,54815.0
28,394.929,54826.0
29,397.541,54851.0
30,400.15,54898.0
31,402.755,54585.0
32,405.356,47184.0
33,407.954,34435.0
34,410.547,23652.0
35,413.137,16334.0
36,415.723,11399.0
37,418.305,7955.0
38,420.883,5511.0
39,423.457,3909.0
40,426.027,2924.0
41,428.593,2195.0
42,431.154,1760.0
43,433.712,1452.0
44,436.265,1257.0
45,438.814,1100.0
46,441.359,1031.0
47,443.9,930.0
48,446.436,864.0
49,448.967,884.0
50,451.495,820.0
51,454.018,828.0
52,456.536,819.0
53,459.05,802.0
54,461.559,832.0
55,464.064,827.0
56,466.564,824.0
57,469.06,840.0
58,471.551,864.0
59,474.037,862.0
60,476.518,873.0
61,478.995,899.0
62,481.467,955.0
63,483.934,914.0
64,486.396,983.0
65,488.853,991.0
66,491.305,1069.0
67,493.753,1099.0
68,496.195,1108.0
69,498.632,1124.0
70,501.065,1182.0
71,503.492,1238.0
72,505.914,1249.0
73,508.332,1264.0
74,510.743,1294.0
75,513.15,1293.0
76,515.552,1341.0
77,517.948,1337.0
78,520.339,1307.0
79,522.725,1331.0
80,525.106,1327.0
81,527.481,1330.0
82,529.851,1344.0
83,532.216,1331.0
84,534.575,1310.0
85,536.929,1285.0
86,539.277,1279.0
87,541.62,1244.0
88,543.957,1235.0
89,546.289,1188.0
90,548.616,1080.0
91,550.936,1114.0
92,553.252,1023.0
93,555.561,1018.0
94,557.865,964.0
95,560.164,932.0
96,562.457,905.0
97,564.744,865.0
98,567.025,890.0
99,569.301,821.0
100,571.571,768.0
101,573.835,734.0
102,576.093,702.0
103,578.346,675.0
104,580.593,666.0
105,582.834,632.0
106,585.069,604.0
107,587.299,577.0
108,589.522,556.0
109,591.74,553.0
110,593.952,497.0
111,596.158,486.0
112,598.358,488.0
113,600.551,484.0
114,602.739,401.0
115,604.922,428.0
116,607.098,380.0
117,609.268,380.0
118,611.432,368.0
119,613.59,351.0
120,615.742,309.0
121,617.887,330.0
122,620.027,286.0
123,622.161,270.0
124,624.289,270.0
125,626.41,269.0
126,628.526,238.0
127,630.635,240.0
128,632.738,216.0
129,634.835,235.0
130,636.926,207.0
131,639.011,210.0
132,641.089,198.0
133,643.162,176.0
134,645.228,192.0
135,647.288,170.0
136,649.341,183.0
137,651.389,148.0
138,653.43,161.0
139,655.465,142.0
140,657.494,141.0
141,659.516,128.0
142,661.532,143.0
143,663.542,122.0
144,665.546,115.0
145,667.543,128.0
146,669.535,115.0
147,671.519,114.0
148,673.498,143.0
149,675.47,76.0
150,677.436,99.0
151,679.396,94.0
152,681.349,84.0
153,683.296,72.0
154,685.236,98.0
155,687.171,104.0
156,689.099,89.0
157,691.02,82.0
158,692.935,62.0
159,694.844,82.0
160,696.747,71.0
161,698.643,71.0
162,700.533,65.0
163,702.416,55.0
164,704.293,71.0
165,706.164,58.0
166,708.029,56.0
167,709.887,38.0
168,711.738,51.0
169,713.584,49.0
170,715.423,12.0
171,717.255,69.0
172,719.082,61.0
173,720.901,63.0
174,722.715,96.0
175,724.522,63.0
176,726.323,65.0
177,728.117,49.0
178,729.905,48.0
179,731.687,42.0
180,733.462,41.0
181,735.232,54.0
182,736.994,78.0
183,738.751,45.0
184,740.501,32.0
185,742.244,25.0
186,743.982,26.0
187,745.713,36.0
188,747.437,59.0
189,749.156,19.0
190,750.868,51.0
191,752.573,33.0
192,754.273,30.0
193,755.966,45.0
194,757.653,2.0
195,759.333,31.0
196,761.008,14.0
197,762.676,21.0
198,764.337,48.0
199,765.993,40.0
200,767.642,56.0
201,769.285,16.0
202,770.922,18.0
203,772.552,44.0
204,774.176,25.0
205,775.795,15.0
206,777.406,5.0
207,779.012,39.0
208,780.611,17.0
209,782.205,57.0
210,783.792,18.0
211,785.373,33.0
212,786.947,36.0
213,788.516,15.0
214,790.078,42.0
215,791.635,46.0
216,793.185,33.0
217,794.729,54.0
218,796.267,30.0
219,797.799,7.0
220,799.325,26.0
221,800.844,1.0
222,802.358,41.0
223,803.866,4.0
224,805.368,-16.0
225,806.863,35.0
226,808.353,50.0
227,809.836,14.0
228,811.314,66.0
229,812.786,13.0
230,814.252,24.0
231,815.711,32.0
232,817.165,-14.0
233,818.613,65.0
234,820.055,33.0
235,821.491,13.0
236,822.922,39.0
237,824.346,19.0
238,825.765,30.0
239,827.178,-18.0
240,828.585,51.0
241,829.986,17.0
242,831.381,14.0
243,832.771,19.0
244,834.155,33.0
245,835.533,36.0
246,836.906,36.0
247,838.272,40.0
248,839.633,54.0
249,840.989,42.0
250,842.339,-21.0
251,843.683,37.0
252,845.021,36.0
253,846.354,24.0
254,847.682,28.0
255,849.004,30.0
256,850.32,11.0
257,851.631,4.0
258,852.936,20.0
259,854.236,-5.0
260,855.53,-11.0
261,856.819,27.0
262,858.102,14.0
263,859.38,56.0
264,860.653,35.0
265,861.92,53.0
266,863.182,8.0
267,864.439,-15.0
268,865.69,23.0
269,866.936,43.0
270,868.177,29.0
271,869.412,20.0
272,870.642,28.0
273,871.867,21.0
274,873.087,30.0
275,874.302,39.0
276,875.512,-11.0
277,876.716,8.0
278,877.916,8.0
279,879.11,66.0
280,880.299,40.0
281,881.483,-15.0
282,882.663,25.0
283,883.837,41.0
284,885.006,17.0
285,886.17,36.0
286,887.33,23.0
287,888.484,11.0
