,Wavelength[nm],Average
0,320.469,-2.0
1,323.166,79.0
2,325.861,88.0
3,328.553,77.0
4,331.243,66.0
5,333.93,64.0
6,336.615,104.0
7,339.297,93.0
8,341.976,111.0
9,344.653,126.0
10,347.327,108.0
11,349.998,124.0
12,352.666,129.0
13,355.331,150.0
14,357.994,200.0
15,360.653,271.0
16,363.309,328.0
17,365.962,449.0
18,368.612,797.0
19,371.259,1573.0
20,373.903,3725.0
21,376.543,8926.0
22,379.18,19110.0
23,381.813,35213.0
24,384.443,53124.0
25,387.07,54483.0
26,389.693,54672.0
27,392.313,54705.0
28,394.929,54624.0
29,397.541,54717.0
30,400.15,53991.0
31,402.755,42085.0
32,405.356,30681.0
33,407.954,21663.0
34,410.547,14834.0
35,413.137,10153.0
36,415.723,7159.0
37,418.305,5111.0
38,420.883,3432.0
39,423.457,2479.0
40,426.027,1819.0
41,428.593,1442.0
42,431.154,1096.0
43,433.712,942.0
44,436.265,839.0
45,438.814,682.0
46,441.359,646.0
47,443.9,602.0
48,446.436,614.0
49,448.967,584.0
50,451.495,533.0
51,454.018,575.0
52,456.536,568.0
53,459.05,567.0
54,461.559,609.0
55,464.064,561.0
56,466.564,524.0
57,469.06,561.0
58,471.551,572.0
59,474.037,535.0
60,476.518,605.0
61,478.995,557.0
62,481.467,587.0
63,483.934,626.0
64,486.396,629.0
65,488.853,599.0
66,491.305,665.0
67,493.753,666.0
68,496.195,672.0
69,498.632,716.0
70,501.065,701.0
71,503.492,723.0
72,505.914,699.0
73,508.332,757.0
74,510.743,733.0
75,513.15,732.0
76,515.552,753.0
77,517.948,755.0
78,520.339,755.0
79,522.725,721.0
80,525.106,716.0
81,527.481,662.0
82,529.851,693.0
83,532.216,662.0
84,534.575,684.0
85,536.929,655.0
86,539.277,660.0
87,541.62,640.0
88,543.957,638.0
89,546.289,601.0
90,548.616,595.0
91,550.936,588.0
92,553.252,572.0
93,555.561,525.0
94,557.865,496.0
95,560.164,474.0
96,562.457,493.0
97,564.744,493.0
98,567.025,380.0
99,569.301,444.0
100,571.571,374.0
101,573.835,409.0
102,576.093,363.0
103,578.346,364.0
104,580.593,358.0
105,582.834,317.0
106,585.069,372.0
107,587.299,286.0
108,589.522,291.0
109,591.74,300.0
110,593.952,258.0
111,596.158,247.0
112,598.358,264.0
113,600.551,230.0
114,602.739,218.0
115,604.922,201.0
116,607.098,218.0
117,609.268,192.0
118,611.432,162.0
119,613.59,182.0
120,615.742,174.0
121,617.887,160.0
122,620.027,158.0
123,622.161,185.0
124,624.289,147.0
125,626.41,133.0
126,628.526,133.0
127,630.635,143.0
128,632.738,111.0
129,634.835,114.0
130,636.926,131.0
131,639.011,144.0
132,641.089,105.0
133,643.162,107.0
134,645.228,101.0
135,647.288,93.0
136,649.341,97.0
137,651.389,79.0
138,653.43,75.0
139,655.465,66.0
140,657.494,75.0
141,659.516,70.0
142,661.532,80.0
143,663.542,66.0
144,665.546,85.0
145,667.543,45.0
146,669.535,54.0
147,671.519,49.0
148,673.498,68.0
149,675.47,71.0
150,677.436,54.0
151,679.396,63.0
152,681.349,55.0
153,683.296,58.0
154,685.236,65.0
155,687.171,42.0
156,689.099,62.0
157,691.02,82.0
158,692.935,80.0
159,694.844,0.0
160,696.747,23.0
161,698.643,42.0
162,700.533,23.0
163,702.416,40.0
164,704.293,56.0
165,706.164,31.0
166,708.029,70.0
167,709.887,34.0
168,711.738,58.0
169,713.584,39.0
170,715.423,23.0
171,717.255,18.0
172,719.082,28.0
173,720.901,24.0
174,722.715,-26.0
175,724.522,9.0
176,726.323,34.0
177,728.117,46.0
178,729.905,24.0
179,731.687,36.0
180,733.462,19.0
181,735.232,27.0
182,736.994,39.0
183,738.751,26.0
184,740.501,5.0
185,742.244,47.0
186,743.982,17.0
187,745.713,13.0
188,747.437,9.0
189,749.156,36.0
190,750.868,-1.0
191,752.573,27.0
192,754.273,8.0
193,755.966,10.0
194,757.653,-4.0
195,759.333,1.0
196,761.008,37.0
197,762.676,60.0
198,764.337,8.0
199,765.993,31.0
200,767.642,14.0
201,769.285,11.0
202,770.922,-17.0
203,772.552,-11.0
204,774.176,9.0
205,775.795,34.0
206,777.406,16.0
207,779.012,30.0
208,780.611,-5.0
209,782.205,17.0
210,783.792,21.0
211,785.373,19.0
212,786.947,-2.0
213,788.516,18.0
214,790.078,29.0
215,791.635,33.0
216,793.185,18.0
217,794.729,-2.0
218,796.267,-21.0
219,797.799,-1.0
220,799.325,26.0
221,800.844,6.0
222,802.358,2.0
223,803.866,23.0
224,805.368,-1.0
225,806.863,12.0
226,808.353,20.0
227,809.836,15.0
228,811.314,0.0
229,812.786,14.0
230,814.252,-43.0
231,815.711,17.0
232,817.165,31.0
233,818.613,3.0
234,820.055,26.0
235,821.491,5.0
236,822.922,-7.0
237,824.346,-10.0
238,825.765,-4.0
239,827.178,23.0
240,828.585,-7.0
241,829.986,18.0
242,831.381,27.0
243,832.771,6.0
244,834.155,28.0
245,835.533,12.0
246,836.906,5.0
247,838.272,4.0
248,839.633,-19.0
249,840.989,3.0
250,842.339,24.0
251,843.683,-14.0
252,845.021,-15.0
253,846.354,40.0
254,847.682,25.0
255,849.004,7.0
256,850.32,-18.0
257,851.631,16.0
258,852.936,-2.0
259,854.236,21.0
260,855.53,-5.0
261,856.819,27.0
262,858.102,-9.0
263,859.38,11.0
264,860.653,15.0
265,861.92,-2.0
266,863.182,9.0
267,864.439,36.0
268,865.69,-7.0
269,866.936,15.0
270,868.177,-16.0
271,869.412,3.0
272,870.642,-18.0
273,871.867,-1.0
274,873.087,-6.0
275,874.302,13.0
276,875.512,50.0
277,876.716,-23.0
278,877.916,51.0
279,879.11,25.0
280,880.299,17.0
281,881.483,12.0
282,882.663,7.0
283,883.837,29.0
284,885.006,-8.0
285,886.17,9.0
286,887.33,10.0
287,888.484,7.0
