,Wavelength[nm],Average
0,320.469,-29.0
1,323.166,99.0
2,325.861,143.0
3,328.553,160.0
4,331.243,144.0
5,333.93,152.0
6,336.615,161.0
7,339.297,170.0
8,341.976,206.0
9,344.653,156.0
10,347.327,214.0
11,349.998,237.0
12,352.666,277.0
13,355.331,282.0
14,357.994,361.0
15,360.653,429.0
16,363.309,536.0
17,365.962,818.0
18,368.612,1308.0
19,371.259,2507.0
20,373.903,5582.0
21,376.543,13144.0
22,379.18,28105.0
23,381.813,48990.0
24,384.443,54705.0
25,387.07,54527.0
26,389.693,54840.0
27,392.313,54768.0
28,394.929,54865.0
29,397.541,54898.0
30,400.15,54934.0
31,402.755,54522.0
32,405.356,45627.0
33,407.954,32854.0
34,410.547,22529.0
35,413.137,15579.0
36,415.723,10994.0
37,418.305,7697.0
38,420.883,5329.0
39,423.457,3751.0
40,426.027,2783.0
41,428.593,2129.0
42,431.154,1660.0
43,433.712,1375.0
44,436.265,1187.0
45,438.814,1046.0
46,441.359,977.0
47,443.9,912.0
48,446.436,853.0
49,448.967,798.0
50,451.495,796.0
51,454.018,753.0
52,456.536,799.0
53,459.05,803.0
54,461.559,779.0
55,464.064,829.0
56,466.564,830.0
57,469.06,823.0
58,471.551,822.0
59,474.037,817.0
60,476.518,833.0
61,478.995,846.0
62,481.467,870.0
63,483.934,898.0
64,486.396,934.0
65,488.853,963.0
66,491.305,968.0
67,493.753,1008.0
68,496.195,1061.0
69,498.632,1101.0
70,501.065,1113.0
71,503.492,1134.0
72,505.914,1228.0
73,508.332,1231.0
74,510.743,1241.0
75,513.15,1236.0
76,515.552,1254.0
77,517.948,1242.0
78,520.339,1242.0
79,522.725,1233.0
80,525.106,1221.0
81,527.481,1251.0
82,529.851,1233.0
83,532.216,1237.0
84,534.575,1220.0
85,536.929,1238.0
86,539.277,1170.0
87,541.62,1176.0
88,543.957,1172.0
89,546.289,1079.0
90,548.616,1016.0
91,550.936,1029.0
92,553.252,990.0
93,555.561,946.0
94,557.865,929.0
95,560.164,879.0
96,562.457,859.0
97,564.744,799.0
98,567.025,779.0
99,569.301,709.0
100,571.571,693.0
101,573.835,687.0
102,576.093,669.0
103,578.346,648.0
104,580.593,565.0
105,582.834,561.0
106,585.069,566.0
107,587.299,460.0
108,589.522,514.0
109,591.74,470.0
110,593.952,461.0
111,596.158,438.0
112,598.358,447.0
113,600.551,398.0
114,602.739,390.0
115,604.922,392.0
116,607.098,378.0
117,609.268,334.0
118,611.432,327.0
119,613.59,280.0
120,615.742,320.0
121,617.887,287.0
122,620.027,263.0
123,622.161,239.0
124,624.289,214.0
125,626.41,209.0
126,628.526,237.0
127,630.635,218.0
128,632.738,211.0
129,634.835,225.0
130,636.926,247.0
131,639.011,212.0
132,641.089,199.0
133,643.162,148.0
134,645.228,161.0
135,647.288,135.0
136,649.341,144.0
137,651.389,122.0
138,653.43,91.0
139,655.465,133.0
140,657.494,131.0
141,659.516,131.0
142,661.532,140.0
143,663.542,113.0
144,665.546,105.0
145,667.543,84.0
146,669.535,128.0
147,671.519,112.0
148,673.498,91.0
149,675.47,76.0
150,677.436,64.0
151,679.396,105.0
152,681.349,100.0
153,683.296,82.0
154,685.236,98.0
155,687.171,80.0
156,689.099,80.0
157,691.02,70.0
158,692.935,59.0
159,694.844,66.0
160,696.747,82.0
161,698.643,99.0
162,700.533,49.0
163,702.416,40.0
164,704.293,33.0
165,706.164,12.0
166,708.029,58.0
167,709.887,37.0
168,711.738,35.0
169,713.584,41.0
170,715.423,25.0
171,717.255,46.0
172,719.082,46.0
173,720.901,59.0
174,722.715,12.0
175,724.522,34.0
176,726.323,57.0
177,728.117,35.0
178,729.905,44.0
179,731.687,13.0
180,733.462,22.0
181,735.232,55.0
182,736.994,31.0
183,738.751,24.0
184,740.501,22.0
185,742.244,39.0
186,743.982,49.0
187,745.713,32.0
188,747.437,39.0
189,749.156,4.0
190,750.868,63.0
191,752.573,25.0
192,754.273,38.0
193,755.966,-23.0
194,757.653,51.0
195,759.333,23.0
196,761.008,9.0
197,762.676,-10.0
198,764.337,13.0
199,765.993,-7.0
200,767.642,44.0
201,769.285,2.0
202,770.922,15.0
203,772.552,46.0
204,774.176,71.0
205,775.795,14.0
206,777.406,43.0
207,779.012,44.0
208,780.611,35.0
209,782.205,28.0
210,783.792,35.0
211,785.373,11.0
212,786.947,37.0
213,788.516,-2.0
214,790.078,34.0
215,791.635,8.0
216,793.185,23.0
217,794.729,7.0
218,796.267,36.0
219,797.799,23.0
220,799.325,46.0
221,800.844,14.0
222,802.358,26.0
223,803.866,38.0
224,805.368,37.0
225,806.863,11.0
226,808.353,39.0
227,809.836,43.0
228,811.314,30.0
229,812.786,44.0
230,814.252,19.0
231,815.711,19.0
232,817.165,48.0
233,818.613,-11.0
234,820.055,31.0
235,821.491,12.0
236,822.922,2.0
237,824.346,35.0
238,825.765,12.0
239,827.178,25.0
240,828.585,47.0
241,829.986,8.0
242,831.381,36.0
243,832.771,40.0
244,834.155,23.0
245,835.533,19.0
246,836.906,32.0
247,838.272,30.0
248,839.633,33.0
249,840.989,11.0
250,842.339,20.0
251,843.683,50.0
252,845.021,17.0
253,846.354,-10.0
254,847.682,-5.0
255,849.004,29.0
256,850.32,30.0
257,851.631,-10.0
258,852.936,35.0
259,854.236,2.0
260,855.53,-5.0
261,856.819,26.0
262,858.102,37.0
263,859.38,37.0
264,860.653,3.0
265,861.92,15.0
266,863.182,30.0
267,864.439,-8.0
268,865.69,51.0
269,866.936,0.0
270,868.177,31.0
271,869.412,27.0
272,870.642,8.0
273,871.867,-19.0
274,873.087,33.0
275,874.302,42.0
276,875.512,49.0
277,876.716,7.0
278,877.916,39.0
279,879.11,15.0
280,880.299,11.0
281,881.483,26.0
282,882.663,46.0
283,883.837,-9.0
284,885.006,0.0
285,886.17,-14.0
286,887.33,37.0
287,888.484,-22.0
