,Wavelength[nm],Average
0,320.469,-1.0
1,323.166,65.0
2,325.861,55.0
3,328.553,74.0
4,331.243,91.0
5,333.93,116.0
6,336.615,92.0
7,339.297,112.0
8,341.976,109.0
9,344.653,114.0
10,347.327,100.0
11,349.998,132.0
12,352.666,125.0
13,355.331,150.0
14,357.994,183.0
15,360.653,212.0
16,363.309,315.0
17,365.962,415.0
18,368.612,720.0
19,371.259,1360.0
20,373.903,2954.0
21,376.543,7064.0
22,379.18,15185.0
23,381.813,28211.0
24,384.443,45107.0
25,387.07,54267.0
26,389.693,54614.0
27,392.313,54765.0
28,394.929,54600.0
29,397.541,54647.0
30,400.15,47023.0
31,402.755,34660.0
32,405.356,25057.0
33,407.954,17566.0
34,410.547,11890.0
35,413.137,8184.0
36,415.723,5703.0
37,418.305,4032.0
38,420.883,2807.0
39,423.457,2016.0
40,426.027,1492.0
41,428.593,1111.0
42,431.154,892.0
43,433.712,695.0
44,436.265,642.0
45,438.814,585.0
46,441.359,535.0
47,443.9,531.0
48,446.436,473.0
49,448.967,453.0
50,451.495,413.0
51,454.018,451.0
52,456.536,441.0
53,459.05,437.0
54,461.559,411.0
55,464.064,433.0
56,466.564,423.0
57,469.06,460.0
58,471.551,470.0
59,474.037,442.0
60,476.518,483.0
61,478.995,465.0
62,481.467,512.0
63,483.934,494.0
64,486.396,517.0
65,488.853,503.0
66,491.305,562.0
67,493.753,591.0
68,496.195,597.0
69,498.632,609.0
70,501.065,634.0
71,503.492,648.0
72,505.914,634.0
73,508.332,680.0
74,510.743,712.0
75,513.15,732.0
76,515.552,722.0
77,517.948,710.0
78,520.339,710.0
79,522.725,745.0
80,525.106,730.0
81,527.481,705.0
82,529.851,694.0
83,532.216,704.0
84,534.575,690.0
85,536.929,679.0
86,539.277,674.0
87,541.62,698.0
88,543.957,643.0
89,546.289,642.0
90,548.616,599.0
91,550.936,571.0
92,553.252,538.0
93,555.561,580.0
94,557.865,504.0
95,560.164,487.0
96,562.457,493.0
97,564.744,467.0
98,567.025,455.0
99,569.301,432.0
100,571.571,430.0
101,573.835,373.0
102,576.093,413.0
103,578.346,355.0
104,580.593,338.0
105,582.834,320.0
106,585.069,312.0
107,587.299,304.0
108,589.522,257.0
109,591.74,283.0
110,593.952,275.0
111,596.158,254.0
112,598.358,254.0
113,600.551,243.0
114,602.739,218.0
115,604.922,202.0
116,607.098,194.0
117,609.268,200.0
118,611.432,176.0
119,613.59,174.0
120,615.742,170.0
121,617.887,143.0
122,620.027,134.0
123,622.161,138.0
124,624.289,114.0
125,626.41,102.0
126,628.526,124.0
127,630.635,148.0
128,632.738,136.0
129,634.835,97.0
130,636.926,108.0
131,639.011,97.0
132,641.089,103.0
133,643.162,63.0
134,645.228,97.0
135,647.288,91.0
136,649.341,51.0
137,651.389,60.0
138,653.43,65.0
139,655.465,57.0
140,657.494,34.0
141,659.516,51.0
142,661.532,46.0
143,663.542,48.0
144,665.546,76.0
145,667.543,59.0
146,669.535,56.0
147,671.519,57.0
148,673.498,67.0
149,675.47,50.0
150,677.436,66.0
151,679.396,42.0
152,681.349,35.0
153,683.296,53.0
154,685.236,43.0
155,687.171,40.0
156,689.099,37.0
157,691.02,33.0
158,692.935,0.0
159,694.844,40.0
160,696.747,20.0
161,698.643,36.0
162,700.533,22.0
163,702.416,44.0
164,704.293,29.0
165,706.164,15.0
166,708.029,19.0
167,709.887,27.0
168,711.738,22.0
169,713.584,28.0
170,715.423,18.0
171,717.255,41.0
172,719.082,39.0
173,720.901,33.0
174,722.715,-17.0
175,724.522,2.0
176,726.323,34.0
177,728.117,28.0
178,729.905,16.0
179,731.687,2.0
180,733.462,-1.0
181,735.232,24.0
182,736.994,30.0
183,738.751,-21.0
184,740.501,-6.0
185,742.244,38.0
186,743.982,3.0
187,745.713,-7.0
188,747.437,23.0
189,749.156,16.0
190,750.868,17.0
191,752.573,7.0
192,754.273,26.0
193,755.966,10.0
194,757.653,12.0
195,759.333,-22.0
196,761.008,-5.0
197,762.676,0.0
198,764.337,-15.0
199,765.993,5.0
200,767.642,0.0
201,769.285,0.0
202,770.922,38.0
203,772.552,9.0
204,774.176,30.0
205,775.795,-18.0
206,777.406,-18.0
207,779.012,2.0
208,780.611,11.0
209,782.205,-20.0
210,783.792,3.0
211,785.373,-21.0
212,786.947,24.0
213,788.516,-2.0
214,790.078,-5.0
215,791.635,17.0
216,793.185,17.0
217,794.729,-32.0
218,796.267,8.0
219,797.799,40.0
220,799.325,-6.0
221,800.844,9.0
222,802.358,-5.0
223,803.866,-44.0
224,805.368,-10.0
225,806.863,-35.0
226,808.353,-51.0
227,809.836,-4.0
228,811.314,-19.0
229,812.786,0.0
230,814.252,-21.0
231,815.711,-12.0
232,817.165,-14.0
233,818.613,-26.0
234,820.055,-18.0
235,821.491,-25.0
236,822.922,11.0
237,824.346,-18.0
238,825.765,-17.0
239,827.178,-19.0
240,828.585,-8.0
241,829.986,-27.0
242,831.381,3.0
243,832.771,-15.0
244,834.155,11.0
245,835.533,-2.0
246,836.906,17.0
247,838.272,-1.0
248,839.633,19.0
249,840.989,8.0
250,842.339,0.0
251,843.683,43.0
252,845.021,17.0
253,846.354,-11.0
254,847.682,12.0
255,849.004,17.0
256,850.32,19.0
257,851.631,-31.0
258,852.936,15.0
259,854.236,1.0
260,855.53,-32.0
261,856.819,3.0
262,858.102,-37.0
263,859.38,19.0
264,860.653,-17.0
265,861.92,-8.0
266,863.182,13.0
267,864.439,-6.0
268,865.69,-17.0
269,866.936,-20.0
270,868.177,5.0
271,869.412,7.0
272,870.642,10.0
273,871.867,-29.0
274,873.087,8.0
275,874.302,27.0
276,875.512,2.0
277,876.716,-2.0
278,877.916,1.0
279,879.11,-7.0
280,880.299,-23.0
281,881.483,9.0
282,882.663,10.0
283,883.837,-24.0
284,885.006,-18.0
285,886.17,29.0
286,887.33,-2.0
287,888.484,-36.0
