,Wavelength[nm],Average
0,320.469,0.0
1,323.166,96.0
2,325.861,64.0
3,328.553,73.0
4,331.243,78.0
5,333.93,64.0
6,336.615,115.0
7,339.297,110.0
8,341.976,107.0
9,344.653,120.0
10,347.327,142.0
11,349.998,153.0
12,352.666,185.0
13,355.331,215.0
14,357.994,344.0
15,360.653,351.0
16,363.309,630.0
17,365.962,1162.0
18,368.612,2418.0
19,371.259,5578.0
20,373.903,12118.0
21,376.543,22999.0
22,379.18,38437.0
23,381.813,51614.0
24,384.443,53329.0
25,387.07,53559.0
26,389.693,53002.0
27,392.313,53206.0
28,394.929,45581.0
29,397.541,33320.0
30,400.15,23678.0
31,402.755,16189.0
32,405.356,10768.0
33,407.954,6987.0
34,410.547,4782.0
35,413.137,3189.0
36,415.723,2274.0
37,418.305,1554.0
38,420.883,1161.0
39,423.457,914.0
40,426.027,750.0
41,428.593,618.0
42,431.154,524.0
43,433.712,435.0
44,436.265,400.0
45,438.814,421.0
46,441.359,406.0
47,443.9,392.0
48,446.436,389.0
49,448.967,378.0
50,451.495,417.0
51,454.018,402.0
52,456.536,360.0
53,459.05,447.0
54,461.559,478.0
55,464.064,412.0
56,466.564,406.0
57,469.06,407.0
58,471.551,395.0
59,474.037,380.0
60,476.518,382.0
61,478.995,385.0
62,481.467,393.0
63,483.934,376.0
64,486.396,361.0
65,488.853,352.0
66,491.305,366.0
67,493.753,368.0
68,496.195,341.0
69,498.632,312.0
70,501.065,295.0
71,503.492,332.0
72,505.914,334.0
73,508.332,319.0
74,510.743,350.0
75,513.15,303.0
76,515.552,312.0
77,517.948,293.0
78,520.339,337.0
79,522.725,323.0
80,525.106,286.0
81,527.481,336.0
82,529.851,277.0
83,532.216,264.0
84,534.575,307.0
85,536.929,269.0
86,539.277,264.0
87,541.62,260.0
88,543.957,243.0
89,546.289,237.0
90,548.616,211.0
91,550.936,210.0
92,553.252,186.0
93,555.561,193.0
94,557.865,147.0
95,560.164,182.0
96,562.457,170.0
97,564.744,166.0
98,567.025,154.0
99,569.301,156.0
100,571.571,133.0
101,573.835,159.0
102,576.093,147.0
103,578.346,146.0
104,580.593,158.0
105,582.834,119.0
106,585.069,99.0
107,587.299,84.0
108,589.522,121.0
109,591.74,110.0
110,593.952,98.0
111,596.158,82.0
112,598.358,91.0
113,600.551,88.0
114,602.739,92.0
115,604.922,97.0
116,607.098,64.0
117,609.268,78.0
118,611.432,68.0
119,613.59,58.0
120,615.742,71.0
121,617.887,62.0
122,620.027,47.0
123,622.161,53.0
124,624.289,67.0
125,626.41,63.0
126,628.526,63.0
127,630.635,55.0
128,632.738,26.0
129,634.835,61.0
130,636.926,46.0
131,639.011,50.0
132,641.089,36.0
133,643.162,34.0
134,645.228,47.0
135,647.288,58.0
136,649.341,49.0
137,651.389,38.0
138,653.43,24.0
139,655.465,26.0
140,657.494,40.0
141,659.516,11.0
142,661.532,37.0
143,663.542,36.0
144,665.546,29.0
145,667.543,15.0
146,669.535,3.0
147,671.519,39.0
148,673.498,29.0
149,675.47,26.0
150,677.436,33.0
151,679.396,-5.0
152,681.349,29.0
153,683.296,12.0
154,685.236,16.0
155,687.171,7.0
156,689.099,13.0
157,691.02,30.0
158,692.935,33.0
159,694.844,21.0
160,696.747,10.0
161,698.643,-15.0
162,700.533,-3.0
163,702.416,8.0
164,704.293,22.0
165,706.164,3.0
166,708.029,4.0
167,709.887,4.0
168,711.738,13.0
169,713.584,17.0
170,715.423,20.0
171,717.255,18.0
172,719.082,-8.0
173,720.901,-4.0
174,722.715,16.0
175,724.522,28.0
176,726.323,22.0
177,728.117,19.0
178,729.905,31.0
179,731.687,-14.0
180,733.462,15.0
181,735.232,13.0
182,736.994,-13.0
183,738.751,0.0
184,740.501,4.0
185,742.244,14.0
186,743.982,18.0
187,745.713,1.0
188,747.437,-1.0
189,749.156,6.0
190,750.868,20.0
191,752.573,16.0
192,754.273,25.0
193,755.966,19.0
194,757.653,-3.0
195,759.333,30.0
196,761.008,-17.0
197,762.676,-3.0
198,764.337,-4.0
199,765.993,36.0
200,767.642,5.0
201,769.285,12.0
202,770.922,8.0
203,772.552,12.0
204,774.176,6.0
205,775.795,-19.0
206,777.406,39.0
207,779.012,7.0
208,780.611,-4.0
209,782.205,-6.0
210,783.792,27.0
211,785.373,2.0
212,786.947,12.0
213,788.516,4.0
214,790.078,-6.0
215,791.635,-1.0
216,793.185,7.0
217,794.729,0.0
218,796.267,40.0
219,797.799,13.0
220,799.325,6.0
221,800.844,17.0
222,802.358,3.0
223,803.866,14.0
224,805.368,10.0
225,806.863,15.0
226,808.353,-2.0
227,809.836,14.0
228,811.314,-10.0
229,812.786,-6.0
230,814.252,43.0
231,815.711,-19.0
232,817.165,-2.0
233,818.613,11.0
234,820.055,-15.0
235,821.491,31.0
236,822.922,-9.0
237,824.346,-17.0
238,825.765,22.0
239,827.178,16.0
240,828.585,11.0
241,829.986,-3.0
242,831.381,11.0
243,832.771,-24.0
244,834.155,5.0
245,835.533,15.0
246,836.906,26.0
247,838.272,1.0
248,839.633,-25.0
249,840.989,-10.0
250,842.339,-15.0
251,843.683,-13.0
252,845.021,-5.0
253,846.354,10.0
254,847.682,-6.0
255,849.004,-11.0
256,850.32,4.0
257,851.631,27.0
258,852.936,-12.0
259,854.236,-5.0
260,855.53,-17.0
261,856.819,-22.0
262,858.102,-11.0
263,859.38,-3.0
264,860.653,0.0
265,861.92,9.0
266,863.182,11.0
267,864.439,5.0
268,865.69,8.0
269,866.936,-4.0
270,868.177,16.0
271,869.412,-13.0
272,870.642,-23.0
273,871.867,-3.0
274,873.087,8.0
275,874.302,-10.0
276,875.512,5.0
277,876.716,9.0
278,877.916,-16.0
279,879.11,-11.0
280,880.299,-14.0
281,881.483,8.0
282,882.663,13.0
283,883.837,-12.0
284,885.006,8.0
285,886.17,-14.0
286,887.33,12.0
287,888.484,9.0
